Time (s)	Stromstärke (A)			
0.000E+00	0.000E+00			
5.000E-06	4.680E+02			
1.000E-05	1.025E+03			
1.500E-05	1.450E+03			
2.000E-05	2.094E+03			
2.500E-05	2.527E+03			
3.000E-05	3.056E+03			
3.500E-05	3.469E+03			
4.000E-05	4.092E+03			
4.500E-05	4.481E+03			
5.000E-05	5.014E+03			
5.500E-05	5.390E+03			
6.000E-05	5.813E+03			
6.500E-05	6.290E+03			
7.000E-05	6.700E+03			
7.500E-05	7.258E+03			
8.000E-05	7.657E+03			
8.500E-05	7.984E+03			
9.000E-05	8.652E+03			
9.500E-05	8.848E+03			
1.000E-04	9.586E+03			
1.050E-04	9.611E+03			
1.100E-04	1.045E+04			
1.150E-04	1.067E+04			
1.200E-04	1.111E+04			
1.250E-04	1.165E+04			
1.300E-04	1.194E+04			
1.350E-04	1.236E+04			
1.400E-04	1.282E+04			
1.450E-04	1.318E+04			
1.500E-04	1.361E+04			
1.550E-04	1.414E+04			
1.600E-04	1.439E+04			
1.650E-04	1.474E+04			
1.700E-04	1.534E+04			
1.750E-04	1.552E+04			
1.800E-04	1.622E+04			
1.850E-04	1.636E+04			
1.900E-04	1.685E+04			
1.950E-04	1.734E+04			
2.000E-04	1.764E+04			
2.050E-04	1.789E+04			
2.100E-04	1.866E+04			
2.150E-04	1.875E+04			
2.200E-04	1.937E+04			
2.250E-04	1.954E+04			
2.300E-04	2.006E+04			
2.350E-04	2.042E+04			
2.400E-04	2.073E+04			
2.450E-04	2.118E+04			
2.500E-04	2.146E+04			
2.550E-04	2.190E+04			
2.600E-04	2.229E+04			
2.650E-04	2.277E+04			
2.700E-04	2.307E+04			
2.750E-04	2.357E+04			
2.800E-04	2.369E+04			
2.850E-04	2.423E+04			
2.900E-04	2.460E+04			
2.950E-04	2.482E+04			
3.000E-04	2.551E+04			
3.050E-04	2.549E+04			
3.100E-04	2.622E+04			
3.150E-04	2.626E+04			
3.200E-04	2.694E+04			
3.250E-04	2.703E+04			
3.300E-04	2.760E+04			
3.350E-04	2.779E+04			
3.400E-04	2.830E+04			
3.450E-04	2.855E+04			
3.500E-04	2.901E+04			
3.550E-04	2.934E+04			
3.600E-04	2.961E+04			
3.650E-04	3.013E+04			
3.700E-04	3.027E+04			
3.750E-04	3.091E+04			
3.800E-04	3.103E+04			
3.850E-04	3.155E+04			
3.900E-04	3.172E+04			
3.950E-04	3.216E+04			
4.000E-04	3.250E+04			
4.050E-04	3.286E+04			
4.100E-04	3.318E+04			
4.150E-04	3.368E+04			
4.200E-04	3.397E+04			
4.250E-04	3.412E+04			
4.300E-04	3.468E+04			
4.350E-04	3.482E+04			
4.400E-04	3.537E+04			
4.450E-04	3.544E+04			
4.500E-04	3.608E+04			
4.550E-04	3.621E+04			
4.600E-04	3.665E+04			
4.650E-04	3.704E+04			
4.700E-04	3.725E+04			
4.750E-04	3.779E+04			
4.800E-04	3.792E+04			
4.850E-04	3.829E+04			
4.900E-04	3.878E+04			
4.950E-04	3.892E+04			
5.000E-04	3.942E+04			
5.050E-04	3.950E+04			
5.100E-04	4.001E+04			
5.150E-04	4.021E+04			
5.200E-04	4.071E+04			
5.250E-04	4.091E+04			
5.300E-04	4.137E+04			
5.350E-04	4.159E+04			
5.400E-04	4.201E+04			
5.450E-04	4.215E+04			
5.500E-04	4.264E+04			
5.550E-04	4.286E+04			
5.600E-04	4.327E+04			
5.650E-04	4.349E+04			
5.700E-04	4.409E+04			
5.750E-04	4.402E+04			
5.800E-04	4.465E+04			
5.850E-04	4.477E+04			
5.900E-04	4.516E+04			
5.950E-04	4.550E+04			
6.000E-04	4.579E+04			
6.050E-04	4.603E+04			
6.100E-04	4.656E+04			
6.150E-04	4.667E+04			
6.200E-04	4.700E+04			
6.250E-04	4.740E+04			
6.300E-04	4.761E+04			
6.350E-04	4.798E+04			
6.400E-04	4.836E+04			
6.450E-04	4.850E+04			
6.500E-04	4.909E+04			
6.550E-04	4.909E+04			
6.600E-04	4.950E+04			
6.650E-04	4.981E+04			
6.700E-04	5.013E+04			
6.750E-04	5.043E+04			
6.800E-04	5.073E+04			
6.850E-04	5.114E+04			
6.900E-04	5.139E+04			
6.950E-04	5.162E+04			
7.000E-04	5.214E+04			
7.050E-04	5.206E+04			
7.100E-04	5.265E+04			
7.150E-04	5.287E+04			
7.200E-04	5.310E+04			
7.250E-04	5.357E+04			
7.300E-04	5.374E+04			
7.350E-04	5.407E+04			
7.400E-04	5.429E+04			
7.450E-04	5.475E+04			
7.500E-04	5.495E+04			
7.550E-04	5.524E+04			
7.600E-04	5.562E+04			
7.650E-04	5.583E+04			
7.700E-04	5.621E+04			
7.750E-04	5.639E+04			
7.800E-04	5.667E+04			
7.850E-04	5.705E+04			
7.900E-04	5.740E+04			
7.950E-04	5.747E+04			
8.000E-04	5.801E+04			
8.050E-04	5.804E+04			
8.100E-04	5.857E+04			
8.150E-04	5.872E+04			
8.200E-04	5.899E+04			
8.250E-04	5.926E+04			
8.300E-04	5.980E+04			
8.350E-04	5.973E+04			
8.400E-04	6.035E+04			
8.450E-04	6.038E+04			
8.500E-04	6.079E+04			
8.550E-04	6.090E+04			
8.600E-04	6.140E+04			
8.650E-04	6.155E+04			
8.700E-04	6.189E+04			
8.750E-04	6.234E+04			
8.800E-04	6.229E+04			
8.850E-04	6.297E+04			
8.900E-04	6.275E+04			
8.950E-04	6.342E+04			
9.000E-04	6.344E+04			
9.050E-04	6.397E+04			
9.100E-04	6.407E+04			
9.150E-04	6.435E+04			
9.200E-04	6.475E+04			
9.250E-04	6.498E+04			
9.300E-04	6.518E+04			
9.350E-04	6.563E+04			
9.400E-04	6.556E+04			
9.450E-04	6.621E+04			
9.500E-04	6.617E+04			
9.550E-04	6.674E+04			
9.600E-04	6.675E+04			
9.650E-04	6.725E+04			
9.700E-04	6.731E+04			
9.750E-04	6.770E+04			
9.800E-04	6.794E+04			
9.850E-04	6.823E+04			
9.900E-04	6.854E+04			
9.950E-04	6.863E+04			
1.000E-03	6.914E+04			
1.005E-03	6.920E+04			
1.010E-03	6.952E+04			
1.015E-03	6.992E+04			
1.020E-03	6.999E+04			
1.025E-03	7.052E+04			
1.030E-03	7.044E+04			
1.035E-03	7.099E+04			
1.040E-03	7.100E+04			
1.045E-03	7.145E+04			
1.050E-03	7.163E+04			
1.055E-03	7.186E+04			
1.060E-03	7.228E+04			
1.065E-03	7.241E+04			
1.070E-03	7.279E+04			
1.075E-03	7.285E+04			
1.080E-03	7.340E+04			
1.085E-03	7.341E+04			
1.090E-03	7.378E+04			
1.095E-03	7.394E+04			
1.100E-03	7.445E+04			
1.105E-03	7.435E+04			
1.110E-03	7.493E+04			
1.115E-03	7.494E+04			
1.120E-03	7.538E+04			
1.125E-03	7.551E+04			
1.130E-03	7.578E+04			
1.135E-03	7.618E+04			
1.140E-03	7.621E+04			
1.145E-03	7.670E+04			
1.150E-03	7.662E+04			
1.155E-03	7.724E+04			
1.160E-03	7.718E+04			
1.165E-03	7.767E+04			
1.170E-03	7.771E+04			
1.175E-03	7.825E+04			
1.180E-03	7.830E+04			
1.185E-03	7.864E+04			
1.190E-03	7.874E+04			
1.195E-03	7.911E+04			
1.200E-03	7.922E+04			
1.205E-03	7.965E+04			
1.210E-03	7.974E+04			
1.215E-03	8.026E+04			
1.220E-03	8.016E+04			
1.225E-03	8.059E+04			
1.230E-03	8.085E+04			
1.235E-03	8.096E+04			
1.240E-03	8.133E+04			
1.245E-03	8.161E+04			
1.250E-03	8.161E+04			
1.255E-03	8.217E+04			
1.260E-03	8.208E+04			
1.265E-03	8.262E+04			
1.270E-03	8.257E+04			
1.275E-03	8.325E+04			
1.280E-03	8.301E+04			
1.285E-03	8.368E+04			
1.290E-03	8.357E+04			
1.295E-03	8.409E+04			
1.300E-03	8.402E+04			
1.305E-03	8.446E+04			
1.310E-03	8.457E+04			
1.315E-03	8.481E+04			
1.320E-03	8.518E+04			
1.325E-03	8.533E+04			
1.330E-03	8.562E+04			
1.335E-03	8.589E+04			
1.340E-03	8.596E+04			
1.345E-03	8.628E+04			
1.350E-03	8.656E+04			
1.355E-03	8.679E+04			
1.360E-03	8.697E+04			
1.365E-03	8.725E+04			
1.370E-03	8.738E+04			
1.375E-03	8.780E+04			
1.380E-03	8.772E+04			
1.385E-03	8.829E+04			
1.390E-03	8.825E+04			
1.395E-03	8.872E+04			
1.400E-03	8.875E+04			
1.405E-03	8.915E+04			
1.410E-03	8.919E+04			
1.415E-03	8.964E+04			
1.420E-03	8.967E+04			
1.425E-03	8.989E+04			
1.430E-03	9.030E+04			
1.435E-03	9.041E+04			
1.440E-03	9.067E+04			
1.445E-03	9.091E+04			
1.450E-03	9.101E+04			
1.455E-03	9.142E+04			
1.460E-03	9.131E+04			
1.465E-03	9.195E+04			
1.470E-03	9.195E+04			
1.475E-03	9.226E+04			
1.480E-03	9.245E+04			
1.485E-03	9.279E+04			
1.490E-03	9.264E+04			
1.495E-03	9.343E+04			
1.500E-03	9.300E+04			
1.505E-03	9.373E+04			
1.510E-03	9.365E+04			
1.515E-03	9.412E+04			
1.520E-03	9.407E+04			
1.525E-03	9.459E+04			
1.530E-03	9.450E+04			
1.535E-03	9.500E+04			
1.540E-03	9.488E+04			
1.545E-03	9.531E+04			
1.550E-03	9.550E+04			
1.555E-03	9.569E+04			
1.560E-03	9.599E+04			
1.565E-03	9.608E+04			
1.570E-03	9.641E+04			
1.575E-03	9.651E+04			
1.580E-03	9.675E+04			
1.585E-03	9.706E+04			
1.590E-03	9.718E+04			
1.595E-03	9.743E+04			
1.600E-03	9.762E+04			
1.605E-03	9.766E+04			
1.610E-03	9.822E+04			
1.615E-03	9.806E+04			
1.620E-03	9.870E+04			
1.625E-03	9.843E+04			
1.630E-03	9.913E+04			
1.635E-03	9.889E+04			
1.640E-03	9.944E+04			
1.645E-03	9.938E+04			
1.650E-03	9.985E+04			
1.655E-03	9.978E+04			
1.660E-03	1.002E+05			
1.665E-03	1.002E+05			
1.670E-03	1.007E+05			
1.675E-03	1.007E+05			
1.680E-03	1.010E+05			
1.685E-03	1.010E+05			
1.690E-03	1.015E+05			
1.695E-03	1.014E+05			
1.700E-03	1.019E+05			
1.705E-03	1.018E+05			
1.710E-03	1.022E+05			
1.715E-03	1.023E+05			
1.720E-03	1.026E+05			
1.725E-03	1.026E+05			
1.730E-03	1.031E+05			
1.735E-03	1.030E+05			
1.740E-03	1.034E+05			
1.745E-03	1.035E+05			
1.750E-03	1.038E+05			
1.755E-03	1.039E+05			
1.760E-03	1.041E+05			
1.765E-03	1.043E+05			
1.770E-03	1.045E+05			
1.775E-03	1.047E+05			
1.780E-03	1.050E+05			
1.785E-03	1.051E+05			
1.790E-03	1.053E+05			
1.795E-03	1.055E+05			
1.800E-03	1.055E+05			
1.805E-03	1.060E+05			
1.810E-03	1.060E+05			
1.815E-03	1.063E+05			
1.820E-03	1.065E+05			
1.825E-03	1.067E+05			
1.830E-03	1.069E+05			
1.835E-03	1.069E+05			
1.840E-03	1.073E+05			
1.845E-03	1.073E+05			
1.850E-03	1.077E+05			
1.855E-03	1.077E+05			
1.860E-03	1.081E+05			
1.865E-03	1.080E+05			
1.870E-03	1.086E+05			
1.875E-03	1.083E+05			
1.880E-03	1.089E+05			
1.885E-03	1.088E+05			
1.890E-03	1.092E+05			
1.895E-03	1.092E+05			
1.900E-03	1.096E+05			
1.905E-03	1.094E+05			
1.910E-03	1.101E+05			
1.915E-03	1.097E+05			
1.920E-03	1.104E+05			
1.925E-03	1.103E+05			
1.930E-03	1.107E+05			
1.935E-03	1.106E+05			
1.940E-03	1.111E+05			
1.945E-03	1.111E+05			
1.950E-03	1.113E+05			
1.955E-03	1.115E+05			
1.960E-03	1.118E+05			
1.965E-03	1.118E+05			
1.970E-03	1.121E+05			
1.975E-03	1.122E+05			
1.980E-03	1.124E+05			
1.985E-03	1.126E+05			
1.990E-03	1.127E+05			
1.995E-03	1.130E+05			
2.000E-03	1.130E+05			
2.005E-03	1.133E+05			
2.010E-03	1.136E+05			
2.015E-03	1.135E+05			
2.020E-03	1.138E+05			
2.025E-03	1.140E+05			
2.030E-03	1.141E+05			
2.035E-03	1.144E+05			
2.040E-03	1.145E+05			
2.045E-03	1.148E+05			
2.050E-03	1.148E+05			
2.055E-03	1.151E+05			
2.060E-03	1.152E+05			
2.065E-03	1.154E+05			
2.070E-03	1.156E+05			
2.075E-03	1.158E+05			
2.080E-03	1.158E+05			
2.085E-03	1.163E+05			
2.090E-03	1.162E+05			
2.095E-03	1.164E+05			
2.100E-03	1.166E+05			
2.105E-03	1.168E+05			
2.110E-03	1.167E+05			
2.115E-03	1.171E+05			
2.120E-03	1.173E+05			
2.125E-03	1.173E+05			
2.130E-03	1.177E+05			
2.135E-03	1.176E+05			
2.140E-03	1.179E+05			
2.145E-03	1.182E+05			
2.150E-03	1.182E+05			
2.155E-03	1.185E+05			
2.160E-03	1.186E+05			
2.165E-03	1.188E+05			
2.170E-03	1.189E+05			
2.175E-03	1.189E+05			
2.180E-03	1.195E+05			
2.185E-03	1.192E+05			
2.190E-03	1.198E+05			
2.195E-03	1.195E+05			
2.200E-03	1.200E+05			
2.205E-03	1.200E+05			
2.210E-03	1.202E+05			
2.215E-03	1.203E+05			
2.220E-03	1.205E+05			
2.225E-03	1.207E+05			
2.230E-03	1.208E+05			
2.235E-03	1.211E+05			
2.240E-03	1.211E+05			
2.245E-03	1.214E+05			
2.250E-03	1.213E+05			
2.255E-03	1.217E+05			
2.260E-03	1.218E+05			
2.265E-03	1.219E+05			
2.270E-03	1.221E+05			
2.275E-03	1.223E+05			
2.280E-03	1.224E+05			
2.285E-03	1.226E+05			
2.290E-03	1.226E+05			
2.295E-03	1.229E+05			
2.300E-03	1.231E+05			
2.305E-03	1.232E+05			
2.310E-03	1.232E+05			
2.315E-03	1.236E+05			
2.320E-03	1.236E+05			
2.325E-03	1.238E+05			
2.330E-03	1.238E+05			
2.335E-03	1.242E+05			
2.340E-03	1.242E+05			
2.345E-03	1.244E+05			
2.350E-03	1.246E+05			
2.355E-03	1.247E+05			
2.360E-03	1.248E+05			
2.365E-03	1.251E+05			
2.370E-03	1.250E+05			
2.375E-03	1.254E+05			
2.380E-03	1.255E+05			
2.385E-03	1.256E+05			
2.390E-03	1.258E+05			
2.395E-03	1.259E+05			
2.400E-03	1.261E+05			
2.405E-03	1.261E+05			
2.410E-03	1.263E+05			
2.415E-03	1.266E+05			
2.420E-03	1.265E+05			
2.425E-03	1.269E+05			
2.430E-03	1.270E+05			
2.435E-03	1.270E+05			
2.440E-03	1.273E+05			
2.445E-03	1.274E+05			
2.450E-03	1.274E+05			
2.455E-03	1.277E+05			
2.460E-03	1.277E+05			
2.465E-03	1.279E+05			
2.470E-03	1.282E+05			
2.475E-03	1.281E+05			
2.480E-03	1.285E+05			
2.485E-03	1.282E+05			
2.490E-03	1.288E+05			
2.495E-03	1.287E+05			
2.500E-03	1.289E+05			
2.505E-03	1.291E+05			
2.510E-03	1.292E+05			
2.515E-03	1.292E+05			
2.520E-03	1.295E+05			
2.525E-03	1.296E+05			
2.530E-03	1.298E+05			
2.535E-03	1.298E+05			
2.540E-03	1.302E+05			
2.545E-03	1.299E+05			
2.550E-03	1.305E+05			
2.555E-03	1.303E+05			
2.560E-03	1.305E+05			
2.565E-03	1.308E+05			
2.570E-03	1.308E+05			
2.575E-03	1.309E+05			
2.580E-03	1.312E+05			
2.585E-03	1.311E+05			
2.590E-03	1.314E+05			
2.595E-03	1.315E+05			
2.600E-03	1.315E+05			
2.605E-03	1.318E+05			
2.610E-03	1.320E+05			
2.615E-03	1.319E+05			
2.620E-03	1.324E+05			
2.625E-03	1.321E+05			
2.630E-03	1.325E+05			
2.635E-03	1.326E+05			
2.640E-03	1.326E+05			
2.645E-03	1.329E+05			
2.650E-03	1.331E+05			
2.655E-03	1.329E+05			
2.660E-03	1.334E+05			
2.665E-03	1.331E+05			
2.670E-03	1.336E+05			
2.675E-03	1.334E+05			
2.680E-03	1.337E+05			
2.685E-03	1.339E+05			
2.690E-03	1.340E+05			
2.695E-03	1.341E+05			
2.700E-03	1.343E+05			
2.705E-03	1.343E+05			
2.710E-03	1.345E+05			
2.715E-03	1.346E+05			
2.720E-03	1.347E+05			
2.725E-03	1.348E+05			
2.730E-03	1.351E+05			
2.735E-03	1.348E+05			
2.740E-03	1.355E+05			
2.745E-03	1.350E+05			
2.750E-03	1.356E+05			
2.755E-03	1.355E+05			
2.760E-03	1.358E+05			
2.765E-03	1.358E+05			
2.770E-03	1.361E+05			
2.775E-03	1.360E+05			
2.780E-03	1.362E+05			
2.785E-03	1.363E+05			
2.790E-03	1.363E+05			
2.795E-03	1.366E+05			
2.800E-03	1.366E+05			
2.805E-03	1.368E+05			
2.810E-03	1.369E+05			
2.815E-03	1.369E+05			
2.820E-03	1.372E+05			
2.825E-03	1.371E+05			
2.830E-03	1.374E+05			
2.835E-03	1.373E+05			
2.840E-03	1.378E+05			
2.845E-03	1.376E+05			
2.850E-03	1.379E+05			
2.855E-03	1.378E+05			
2.860E-03	1.381E+05			
2.865E-03	1.383E+05			
2.870E-03	1.380E+05			
2.875E-03	1.387E+05			
2.880E-03	1.382E+05			
2.885E-03	1.389E+05			
2.890E-03	1.384E+05			
2.895E-03	1.391E+05			
2.900E-03	1.387E+05			
2.905E-03	1.393E+05			
2.910E-03	1.390E+05			
2.915E-03	1.394E+05			
2.920E-03	1.393E+05			
2.925E-03	1.396E+05			
2.930E-03	1.396E+05			
2.935E-03	1.397E+05			
2.940E-03	1.399E+05			
2.945E-03	1.399E+05			
2.950E-03	1.400E+05			
2.955E-03	1.402E+05			
2.960E-03	1.402E+05			
2.965E-03	1.404E+05			
2.970E-03	1.404E+05			
2.975E-03	1.406E+05			
2.980E-03	1.406E+05			
2.985E-03	1.409E+05			
2.990E-03	1.408E+05			
2.995E-03	1.412E+05			
3.000E-03	1.410E+05			
3.005E-03	1.413E+05			
3.010E-03	1.412E+05			
3.015E-03	1.415E+05			
3.020E-03	1.415E+05			
3.025E-03	1.415E+05			
3.030E-03	1.418E+05			
3.035E-03	1.417E+05			
3.040E-03	1.421E+05			
3.045E-03	1.419E+05			
3.050E-03	1.422E+05			
3.055E-03	1.423E+05			
3.060E-03	1.423E+05			
3.065E-03	1.424E+05			
3.070E-03	1.426E+05			
3.075E-03	1.426E+05			
3.080E-03	1.426E+05			
3.085E-03	1.429E+05			
3.090E-03	1.427E+05			
3.095E-03	1.432E+05			
3.100E-03	1.431E+05			
3.105E-03	1.432E+05			
3.110E-03	1.433E+05			
3.115E-03	1.434E+05			
3.120E-03	1.435E+05			
3.125E-03	1.436E+05			
3.130E-03	1.437E+05			
3.135E-03	1.439E+05			
3.140E-03	1.439E+05			
3.145E-03	1.439E+05			
3.150E-03	1.442E+05			
3.155E-03	1.441E+05			
3.160E-03	1.443E+05			
3.165E-03	1.443E+05			
3.170E-03	1.446E+05			
3.175E-03	1.444E+05			
3.180E-03	1.448E+05			
3.185E-03	1.447E+05			
3.190E-03	1.447E+05			
3.195E-03	1.451E+05			
3.200E-03	1.447E+05			
3.205E-03	1.452E+05			
3.210E-03	1.451E+05			
3.215E-03	1.454E+05			
3.220E-03	1.452E+05			
3.225E-03	1.455E+05			
3.230E-03	1.454E+05			
3.235E-03	1.456E+05			
3.240E-03	1.458E+05			
3.245E-03	1.456E+05			
3.250E-03	1.460E+05			
3.255E-03	1.459E+05			
3.260E-03	1.460E+05			
3.265E-03	1.462E+05			
3.270E-03	1.460E+05			
3.275E-03	1.466E+05			
3.280E-03	1.461E+05			
3.285E-03	1.467E+05			
3.290E-03	1.465E+05			
3.295E-03	1.467E+05			
3.300E-03	1.468E+05			
3.305E-03	1.467E+05			
3.310E-03	1.470E+05			
3.315E-03	1.469E+05			
3.320E-03	1.470E+05			
3.325E-03	1.472E+05			
3.330E-03	1.472E+05			
3.335E-03	1.474E+05			
3.340E-03	1.473E+05			
3.345E-03	1.475E+05			
3.350E-03	1.475E+05			
3.355E-03	1.477E+05			
3.360E-03	1.475E+05			
3.365E-03	1.479E+05			
3.370E-03	1.478E+05			
3.375E-03	1.480E+05			
3.380E-03	1.480E+05			
3.385E-03	1.481E+05			
3.390E-03	1.482E+05			
3.395E-03	1.482E+05			
3.400E-03	1.484E+05			
3.405E-03	1.483E+05			
3.410E-03	1.487E+05			
3.415E-03	1.485E+05			
3.420E-03	1.487E+05			
3.425E-03	1.486E+05			
3.430E-03	1.490E+05			
3.435E-03	1.487E+05			
3.440E-03	1.491E+05			
3.445E-03	1.491E+05			
3.450E-03	1.491E+05			
3.455E-03	1.493E+05			
3.460E-03	1.491E+05			
3.465E-03	1.495E+05			
3.470E-03	1.494E+05			
3.475E-03	1.494E+05			
3.480E-03	1.496E+05			
3.485E-03	1.495E+05			
3.490E-03	1.498E+05			
3.495E-03	1.497E+05			
3.500E-03	1.498E+05			
3.505E-03	1.499E+05			
3.510E-03	1.500E+05			
3.515E-03	1.500E+05			
3.520E-03	1.501E+05			
3.525E-03	1.504E+05			
3.530E-03	1.502E+05			
3.535E-03	1.504E+05			
3.540E-03	1.503E+05			
3.545E-03	1.505E+05			
3.550E-03	1.504E+05			
3.555E-03	1.507E+05			
3.560E-03	1.506E+05			
3.565E-03	1.509E+05			
3.570E-03	1.507E+05			
3.575E-03	1.508E+05			
3.580E-03	1.510E+05			
3.585E-03	1.509E+05			
3.590E-03	1.513E+05			
3.595E-03	1.511E+05			
3.600E-03	1.512E+05			
3.605E-03	1.514E+05			
3.610E-03	1.513E+05			
3.615E-03	1.514E+05			
3.620E-03	1.515E+05			
3.625E-03	1.515E+05			
3.630E-03	1.517E+05			
3.635E-03	1.516E+05			
3.640E-03	1.518E+05			
3.645E-03	1.517E+05			
3.650E-03	1.519E+05			
3.655E-03	1.519E+05			
3.660E-03	1.519E+05			
3.665E-03	1.523E+05			
3.670E-03	1.520E+05			
3.675E-03	1.523E+05			
3.680E-03	1.521E+05			
3.685E-03	1.524E+05			
3.690E-03	1.523E+05			
3.695E-03	1.523E+05			
3.700E-03	1.525E+05			
3.705E-03	1.525E+05			
3.710E-03	1.526E+05			
3.715E-03	1.526E+05			
3.720E-03	1.528E+05			
3.725E-03	1.526E+05			
3.730E-03	1.529E+05			
3.735E-03	1.528E+05			
3.740E-03	1.529E+05			
3.745E-03	1.531E+05			
3.750E-03	1.531E+05			
3.755E-03	1.531E+05			
3.760E-03	1.532E+05			
3.765E-03	1.533E+05			
3.770E-03	1.531E+05			
3.775E-03	1.534E+05			
3.780E-03	1.533E+05			
3.785E-03	1.535E+05			
3.790E-03	1.535E+05			
3.795E-03	1.534E+05			
3.800E-03	1.537E+05			
3.805E-03	1.536E+05			
3.810E-03	1.538E+05			
3.815E-03	1.537E+05			
3.820E-03	1.539E+05			
3.825E-03	1.539E+05			
3.830E-03	1.539E+05			
3.835E-03	1.539E+05			
3.840E-03	1.541E+05			
3.845E-03	1.540E+05			
3.850E-03	1.541E+05			
3.855E-03	1.540E+05			
3.860E-03	1.544E+05			
3.865E-03	1.542E+05			
3.870E-03	1.544E+05			
3.875E-03	1.542E+05			
3.880E-03	1.546E+05			
3.885E-03	1.542E+05			
3.890E-03	1.547E+05			
3.895E-03	1.543E+05			
3.900E-03	1.549E+05			
3.905E-03	1.544E+05			
3.910E-03	1.548E+05			
3.915E-03	1.547E+05			
3.920E-03	1.548E+05			
3.925E-03	1.549E+05			
3.930E-03	1.548E+05			
3.935E-03	1.551E+05			
3.940E-03	1.549E+05			
3.945E-03	1.550E+05			
3.950E-03	1.550E+05			
3.955E-03	1.553E+05			
3.960E-03	1.550E+05			
3.965E-03	1.554E+05			
3.970E-03	1.551E+05			
3.975E-03	1.553E+05			
3.980E-03	1.554E+05			
3.985E-03	1.552E+05			
3.990E-03	1.556E+05			
3.995E-03	1.552E+05			
4.000E-03	1.557E+05			
4.005E-03	1.554E+05			
4.010E-03	1.556E+05			
4.015E-03	1.556E+05			
4.020E-03	1.557E+05			
4.025E-03	1.556E+05			
4.030E-03	1.558E+05			
4.035E-03	1.557E+05			
4.040E-03	1.558E+05			
4.045E-03	1.559E+05			
4.050E-03	1.559E+05			
4.055E-03	1.559E+05			
4.060E-03	1.560E+05			
4.065E-03	1.559E+05			
4.070E-03	1.561E+05			
4.075E-03	1.560E+05			
4.080E-03	1.562E+05			
4.085E-03	1.560E+05			
4.090E-03	1.564E+05			
4.095E-03	1.561E+05			
4.100E-03	1.564E+05			
4.105E-03	1.561E+05			
4.110E-03	1.565E+05			
4.115E-03	1.561E+05			
4.120E-03	1.566E+05			
4.125E-03	1.563E+05			
4.130E-03	1.567E+05			
4.135E-03	1.564E+05			
4.140E-03	1.565E+05			
4.145E-03	1.565E+05			
4.150E-03	1.566E+05			
4.155E-03	1.567E+05			
4.160E-03	1.567E+05			
4.165E-03	1.568E+05			
4.170E-03	1.567E+05			
4.175E-03	1.569E+05			
4.180E-03	1.566E+05			
4.185E-03	1.569E+05			
4.190E-03	1.567E+05			
4.195E-03	1.569E+05			
4.200E-03	1.569E+05			
4.205E-03	1.569E+05			
4.210E-03	1.571E+05			
4.215E-03	1.570E+05			
4.220E-03	1.569E+05			
4.225E-03	1.572E+05			
4.230E-03	1.570E+05			
4.235E-03	1.572E+05			
4.240E-03	1.572E+05			
4.245E-03	1.572E+05			
4.250E-03	1.573E+05			
4.255E-03	1.571E+05			
4.260E-03	1.572E+05			
4.265E-03	1.573E+05			
4.270E-03	1.573E+05			
4.275E-03	1.573E+05			
4.280E-03	1.574E+05			
4.285E-03	1.574E+05			
4.290E-03	1.574E+05			
4.295E-03	1.574E+05			
4.300E-03	1.575E+05			
4.305E-03	1.576E+05			
4.310E-03	1.574E+05			
4.315E-03	1.577E+05			
4.320E-03	1.575E+05			
4.325E-03	1.577E+05			
4.330E-03	1.576E+05			
4.335E-03	1.576E+05			
